# Fig. 7 of https://arxiv.org/pdf/2303.08854
# line: X-rays (this work)
# m [MeV] sigmav [cm^3/s]
1.02352e+0 1.12567e-27
1.11254e+0 1.12567e-27
1.21213e+0 1.12908e-27
1.32064e+0 1.16612e-27
1.43886e+0 1.21904e-27
1.56767e+0 1.29509e-27
1.70800e+0 1.38844e-27
1.86090e+0 1.50816e-27
2.02748e+0 1.63985e-27
2.20898e+0 1.80294e-27
2.40672e+0 1.98625e-27
2.62217e+0 2.20816e-27
2.85690e+0 2.45981e-27
3.11264e+0 2.75677e-27
3.39128e+0 3.09271e-27
3.69486e+0 3.49064e-27
4.02561e+0 3.92391e-27
4.38598e+0 4.45567e-27
4.77860e+0 5.05950e-27
5.20637e+0 5.75676e-27
5.67243e+0 6.55011e-27
6.08462e+0 7.25989e-27
7.50978e+0 1.01783e-26
8.18204e+0 1.16749e-26
8.91448e+0 1.33914e-26
9.71248e+0 1.54225e-26
1.05819e+1 1.77974e-26
1.15292e+1 2.04554e-26
1.25613e+1 2.36293e-26
1.36857e+1 2.72955e-26
1.49108e+1 3.16262e-26
1.62456e+1 3.42840e-26
1.76999e+1 2.95595e-26
1.92844e+1 2.53835e-26
2.10107e+1 2.30874e-26
2.28915e+1 2.13621e-26
2.49407e+1 2.07254e-26
2.71733e+1 1.93320e-26
2.94907e+1 1.53697e-26
3.17571e+1 1.20646e-26
3.36689e+1 9.30132e-27
3.52808e+1 7.34089e-27
3.74046e+1 5.63863e-27
4.28708e+1 3.02850e-27
4.63459e+1 2.32050e-27
5.02983e+1 1.83412e-27
5.48009e+1 1.46764e-27
5.97065e+1 1.26412e-27
6.50513e+1 1.10877e-27
7.00508e+1 1.05756e-27
7.72395e+1 9.65771e-28
8.80055e+1 9.43604e-28
1.01921e+2 9.43604e-28
1.13321e+2 9.88457e-28
1.26176e+2 1.04050e-27
1.37471e+2 1.10097e-27
1.49777e+2 1.16494e-27
1.63185e+2 1.23637e-27
1.77793e+2 1.31484e-27
1.93708e+2 1.40251e-27
2.11048e+2 1.50057e-27
2.29941e+2 1.62176e-27
2.50525e+2 1.76160e-27
2.72951e+2 1.93484e-27
2.97385e+2 2.13802e-27
3.24007e+2 2.38408e-27
3.53011e+2 2.66652e-27
3.84612e+2 3.00355e-27
4.19041e+2 3.39686e-27
4.56553e+2 3.86499e-27
4.97423e+2 4.40651e-27
5.41951e+2 4.99359e-27
5.90465e+2 5.62475e-27
6.43323e+2 6.22797e-27
7.00911e+2 6.79233e-27
7.63656e+2 7.39290e-27
8.32016e+2 8.02227e-27
9.06497e+2 8.78460e-27
9.87644e+2 9.70709e-27
1.07606e+3 1.07590e-26
1.17238e+3 1.19730e-26
1.24296e+3 1.28911e-26
1.60128e+3 1.71628e-26
1.74462e+3 1.86803e-26
1.90080e+3 2.00267e-26
2.07095e+3 2.14053e-26
2.25634e+3 2.27407e-26
2.45832e+3 2.41108e-26
2.67839e+3 2.58486e-26
2.91815e+3 2.77956e-26
3.17938e+3 3.03756e-26
3.46399e+3 3.33966e-26
3.77408e+3 3.72401e-26
4.11192e+3 4.11176e-26
4.48001e+3 4.69164e-26
4.82902e+3 5.18825e-26