# 2111.08025 Fig 3 lower left p-wave
# m [eV] sigmav[cm^3/s]
9.92037e+5 6.12792e-28
1.23106e+6 6.28793e-28
1.64164e+6 7.15283e-28
2.26030e+6 9.02036e-28
2.94273e+6 1.10860e-27
3.68105e+6 1.39805e-27
5.57863e+6 2.28144e-27
8.12311e+6 3.72302e-27
1.17340e+7 6.56393e-27
1.82145e+7 1.31645e-26
2.87298e+7 2.77990e-26
4.25082e+7 5.43344e-26
6.59849e+7 1.14736e-25
1.01612e+8 2.42286e-25
1.51550e+8 4.61508e-25
2.40960e+8 9.74554e-25
3.62266e+8 1.76307e-24
5.71406e+8 3.35830e-24
8.72916e+8 5.77024e-24
1.26094e+9 8.94319e-24
