# Fig 7 of https://arxiv.org/pdf/2509.08506v1
# line: NuSTAR MW Halo (this work)
# m [keV] sigmav [cm^3/s]
3.03246e+0 1.41043e-34
3.08460e+0 1.64111e-34
3.13765e+0 1.96016e-34
3.19161e+0 2.32458e-34
3.24649e+0 2.64538e-34
3.30232e+0 2.92339e-34
3.35911e+0 3.18230e-34
3.41687e+0 3.46140e-34
3.47563e+0 3.70866e-34
3.53540e+0 3.85869e-34
3.59620e+0 3.70279e-34
3.65804e+0 3.30054e-34
3.72095e+0 2.77430e-34
3.77907e+0 2.25656e-34
3.82623e+0 1.85451e-34
3.86497e+0 1.53129e-34
3.90108e+0 1.24926e-34
3.93753e+0 1.01326e-34
3.97433e+0 8.21845e-35
4.01146e+0 6.74389e-35
4.05208e+0 5.53620e-35
4.09946e+0 4.56086e-35
4.16028e+0 3.78984e-35
4.23182e+0 3.39695e-35
4.30459e+0 3.40234e-35
4.37862e+0 3.63096e-35
4.45391e+0 3.86573e-35
4.53050e+0 4.01573e-35
4.60841e+0 4.17486e-35
4.68766e+0 4.44480e-35
4.76828e+0 4.98650e-35
4.83526e+0 5.90686e-35
4.88422e+0 7.16856e-35
4.93283e+0 8.68531e-35
4.96107e+0 1.04794e-34
4.99137e+0 1.25335e-34
5.01852e+0 1.52951e-34
5.06149e+0 1.86611e-34
5.11671e+0 2.33359e-34
5.19261e+0 2.73932e-34
5.28191e+0 2.82762e-34
5.36026e+0 2.49954e-34
5.41874e+0 2.08112e-34
5.46372e+0 1.69043e-34
5.51192e+0 1.37909e-34
5.57205e+0 1.13247e-34
5.65471e+0 1.03519e-34
5.73514e+0 1.19131e-34
5.77429e+0 1.47448e-34
5.81470e+0 1.83863e-34
5.85994e+0 2.29873e-34
5.90031e+0 2.85789e-34
5.96996e+0 3.58432e-34
6.07262e+0 4.03073e-34
6.17705e+0 4.29135e-34
6.28328e+0 4.41914e-34
6.39133e+0 3.81305e-34
6.50124e+0 3.13222e-34
6.61304e+0 2.87967e-34
6.72676e+0 2.77871e-34
6.84244e+0 2.60582e-34
6.96010e+0 2.53448e-34
7.06335e+0 2.78450e-34
7.14594e+0 3.43678e-34
7.22950e+0 4.13228e-34
7.33675e+0 4.71983e-34
7.46291e+0 4.86038e-34
7.59125e+0 4.97346e-34
7.71581e+0 4.49229e-34
7.80604e+0 3.51767e-34
7.85915e+0 2.90865e-34
7.90956e+0 2.36691e-34
7.95876e+0 1.91768e-34
8.01308e+0 1.53724e-34
8.09911e+0 1.31257e-34
8.22208e+0 1.31180e-34
8.32467e+0 1.58106e-34
8.39595e+0 1.90227e-34
8.46783e+0 2.30409e-34
8.55358e+0 2.78407e-34
8.67374e+0 3.29793e-34
8.81606e+0 3.27006e-34
8.91915e+0 2.56807e-34
9.00249e+0 2.08501e-34
9.14109e+0 1.78090e-34
9.24429e+0 2.20446e-34
9.31317e+0 2.84762e-34
9.37089e+0 3.47446e-34
9.43831e+0 4.18215e-34
9.54867e+0 5.25738e-34
9.71288e+0 5.55750e-34
9.87991e+0 5.47439e-34
1.00498e+1 5.32874e-34
1.02226e+1 4.87969e-34
1.03984e+1 4.31866e-34
1.05772e+1 4.22382e-34
1.07258e+1 3.80184e-34
1.08428e+1 3.13791e-34
1.09526e+1 2.56956e-34
1.10979e+1 2.19208e-34
1.12887e+1 2.21480e-34
1.14829e+1 2.28800e-34
1.16803e+1 2.59139e-34
1.18353e+1 2.14252e-34
1.19366e+1 1.76169e-34
1.20332e+1 1.39198e-34
1.21796e+1 1.07963e-34
1.23890e+1 9.23468e-35
1.26020e+1 9.70781e-35
1.28188e+1 1.00366e-34
1.30392e+1 1.04675e-34
1.32121e+1 1.24201e-34
1.33459e+1 1.51547e-34
1.35334e+1 1.86020e-34
1.37661e+1 1.77939e-34
1.39703e+1 1.86611e-34
1.41310e+1 2.25602e-34
1.41776e+1 2.77944e-34
1.42468e+1 3.51037e-34
1.43184e+1 4.54353e-34
1.43851e+1 5.91567e-34
1.44998e+1 7.52509e-34
1.46921e+1 8.78252e-34
1.48755e+1 7.08960e-34
1.50028e+1 5.80069e-34
1.51841e+1 4.61343e-34
1.53379e+1 4.54848e-34
1.55380e+1 5.53161e-34
1.56535e+1 6.82658e-34
1.57332e+1 8.21107e-34
1.59007e+1 1.01543e-33
1.61742e+1 1.09576e-33
1.64523e+1 1.04899e-33
1.67352e+1 1.08538e-33
1.70230e+1 1.12750e-33
1.72488e+1 9.13054e-34
1.74776e+1 7.47651e-34
1.77384e+1 7.36274e-34
1.78471e+1 9.18380e-34
1.79303e+1 1.12244e-33
1.80046e+1 1.36588e-33
1.82245e+1 1.60341e-33
1.85092e+1 1.82775e-33
1.87402e+1 2.20136e-33
1.88275e+1 2.82406e-33
1.88909e+1 3.59723e-33
1.89495e+1 4.48695e-33
1.90203e+1 5.67516e-33
1.90772e+1 7.09353e-33
1.91315e+1 8.67602e-33
1.91661e+1 1.12144e-32
1.92207e+1 1.36664e-32
1.92779e+1 1.73845e-32
1.93377e+1 2.29828e-32
1.93978e+1 3.01529e-32
1.94618e+1 4.02123e-32
1.95576e+1 5.16399e-32
1.96491e+1 6.56152e-32
1.97594e+1 7.90373e-32